25.026165140 204.0
25.039295423 231.0
25.052425705 239.0
25.065555988 259.0
25.078686271 244.0
25.091816553 236.0
25.104946836 232.0
25.118077119 242.0
25.131207401 232.0
25.144337684 243.0
25.157467967 248.0
25.170598249 216.0
25.183728532 211.0
25.196858815 249.0
25.209989097 218.0
25.223119380 248.0
25.236249663 220.0
25.249379945 228.0
25.262510228 211.0
25.275640511 212.0
25.288770794 207.0
25.301901076 219.0
25.315031359 260.0
25.328161642 223.0
25.341291924 217.0
25.354422207 231.0
25.367552490 217.0
25.380682772 233.0
25.393813055 190.0
25.406943338 261.0
25.420073620 237.0
25.433203903 248.0
25.446334186 218.0
25.459464468 241.0
25.472594751 247.0
25.485725034 279.0
25.498855316 239.0
25.511985599 225.0
25.525115882 231.0
25.538246164 243.0
25.551376447 274.0
25.564506730 247.0
25.577637012 223.0
25.590767295 266.0
25.603897578 245.0
25.617027860 280.0
25.630158143 270.0
25.643288426 284.0
25.656418708 275.0
25.669548991 291.0
25.682679274 242.0
25.695809556 257.0
25.708939839 241.0
25.722070122 229.0
25.735200405 286.0
25.748330687 209.0
25.761460970 258.0
25.774591253 228.0
25.787721535 219.0
25.800851818 230.0
25.813982101 247.0
25.827112383 219.0
25.840242666 232.0
25.853372949 216.0
25.866503231 228.0
25.879633514 203.0
25.892763797 201.0
25.905894079 224.0
25.919024362 235.0
25.932154645 232.0
25.945284927 233.0
25.958415210 234.0
25.971545493 249.0
25.984675775 246.0
25.997806058 231.0
26.010936341 233.0
26.024066623 245.0
26.037196906 230.0
26.050327189 222.0
26.063457471 223.0
26.076587754 220.0
26.089718037 249.0
26.102848319 215.0
26.115978602 237.0
26.129108885 208.0
26.142239167 238.0
26.155369450 199.0
26.168499733 237.0
26.181630015 258.0
26.194760298 235.0
26.207890581 248.0
26.221020864 223.0
26.234151146 207.0
26.247281429 235.0
26.260411712 225.0
26.273541994 241.0
26.286672277 206.0
26.299802560 233.0
26.312932842 233.0
26.326063125 214.0
26.339193408 220.0
26.352323690 237.0
26.365453973 233.0
26.378584256 227.0
26.391714538 220.0
26.404844821 215.0
26.417975104 236.0
26.431105386 219.0
26.444235669 247.0
26.457365952 232.0
26.470496234 228.0
26.483626517 213.0
26.496756800 228.0
26.509887082 225.0
26.523017365 235.0
26.536147648 215.0
26.549277930 196.0
26.562408213 228.0
26.575538496 210.0
26.588668778 238.0
26.601799061 230.0
26.614929344 225.0
26.628059626 234.0
26.641189909 262.0
26.654320192 256.0
26.667450475 223.0
26.680580757 215.0
26.693711040 208.0
26.706841323 197.0
26.719971605 218.0
26.733101888 218.0
26.746232171 219.0
26.759362453 203.0
26.772492736 228.0
26.785623019 208.0
26.798753301 201.0
26.811883584 227.0
26.825013867 170.0
26.838144149 242.0
26.851274432 237.0
26.864404715 215.0
26.877534997 225.0
26.890665280 214.0
26.903795563 219.0
26.916925845 210.0
26.930056128 216.0
26.943186411 226.0
26.956316693 243.0
26.969446976 220.0
26.982577259 223.0
26.995707541 203.0
27.008837824 221.0
27.021968107 196.0
27.035098389 221.0
27.048228672 209.0
27.061358955 255.0
27.074489237 211.0
27.087619520 246.0
27.100749803 226.0
27.113880086 245.0
27.127010368 226.0
27.140140651 220.0
27.153270934 229.0
27.166401216 224.0
27.179531499 186.0
27.192661782 232.0
27.205792064 216.0
27.218922347 218.0
27.232052630 211.0
27.245182912 233.0
27.258313195 209.0
27.271443478 214.0
27.284573760 237.0
27.297704043 232.0
27.310834326 185.0
27.323964608 212.0
27.337094891 194.0
27.350225174 220.0
27.363355456 223.0
27.376485739 224.0
27.389616022 229.0
27.402746304 206.0
27.415876587 239.0
27.429006870 209.0
27.442137152 238.0
27.455267435 221.0
27.468397718 232.0
27.481528000 255.0
27.494658283 245.0
27.507788566 236.0
27.520918848 259.0
27.534049131 260.0
27.547179414 265.0
27.560309696 242.0
27.573439979 268.0
27.586570262 267.0
27.599700545 278.0
27.612830827 249.0
27.625961110 236.0
27.639091393 263.0
27.652221675 248.0
27.665351958 238.0
27.678482241 257.0
27.691612523 232.0
27.704742806 247.0
27.717873089 267.0
27.731003371 261.0
27.744133654 288.0
27.757263937 223.0
27.770394219 298.0
27.783524502 248.0
27.796654785 285.0
27.809785067 274.0
27.822915350 264.0
27.836045633 256.0
27.849175915 226.0
27.862306198 267.0
27.875436481 282.0
27.888566763 282.0
27.901697046 269.0
27.914827329 243.0
27.927957611 264.0
27.941087894 325.0
27.954218177 295.0
27.967348459 263.0
27.980478742 249.0
27.993609025 245.0
28.006739307 296.0
28.019869590 279.0
28.032999873 285.0
28.046130156 303.0
28.059260438 281.0
28.072390721 341.0
28.085521004 310.0
28.098651286 355.0
28.111781569 349.0
28.124911852 358.0
28.138042134 396.0
28.151172417 373.0
28.164302700 414.0
28.177432982 438.0
28.190563265 466.0
28.203693548 469.0
28.216823830 527.0
28.229954113 548.0
28.243084396 618.0
28.256214678 609.0
28.269344961 690.0
28.282475244 800.0
28.295605526 938.0
28.308735809 1005.0
28.321866092 1085.0
28.334996374 1340.0
28.348126657 1651.0
28.361256940 1892.0
28.374387222 2277.0
28.387517505 2858.0
28.400647788 3592.0
28.413778070 4454.0
28.426908353 5489.0
28.440038636 7173.0
28.453168918 9042.0
28.466299201 10364.0
28.479429484 9383.0
28.492559766 6437.0
28.505690049 4982.0
28.518820332 4730.0
28.531950615 5266.0
28.545080897 4922.0
28.558211180 3487.0
28.571341463 2155.0
28.584471745 1289.0
28.597602028 1012.0
28.610732311 790.0
28.623862593 684.0
28.636992876 640.0
28.650123159 573.0
28.663253441 520.0
28.676383724 455.0
28.689514007 461.0
28.702644289 429.0
28.715774572 408.0
28.728904855 384.0
28.742035137 371.0
28.755165420 330.0
28.768295703 320.0
28.781425985 322.0
28.794556268 284.0
28.807686551 316.0
28.820816833 286.0
28.833947116 288.0
28.847077399 286.0
28.860207681 267.0
28.873337964 266.0
28.886468247 295.0
28.899598529 282.0
28.912728812 276.0
28.925859095 242.0
28.938989377 262.0
28.952119660 226.0
28.965249943 271.0
28.978380226 268.0
28.991510508 273.0
29.004640791 267.0
29.017771074 269.0
29.030901356 241.0
29.044031639 242.0
29.057161922 220.0
29.070292204 243.0
29.083422487 259.0
29.096552770 221.0
29.109683052 225.0
29.122813335 237.0
29.135943618 219.0
29.149073900 222.0
29.162204183 236.0
29.175334466 213.0
29.188464748 263.0
29.201595031 226.0
29.214725314 214.0
29.227855596 250.0
29.240985879 202.0
29.254116162 234.0
29.267246444 233.0
29.280376727 273.0
29.293507010 232.0
29.306637292 238.0
29.319767575 266.0
29.332897858 222.0
29.346028140 213.0
29.359158423 233.0
29.372288706 233.0
29.385418988 196.0
29.398549271 259.0
29.411679554 242.0
29.424809837 230.0
29.437940119 205.0
29.451070402 239.0
29.464200685 226.0
29.477330967 224.0
29.490461250 238.0
29.503591533 210.0
29.516721815 221.0
29.529852098 211.0
29.542982381 211.0
29.556112663 228.0
29.569242946 205.0
29.582373229 240.0
29.595503511 207.0
29.608633794 231.0
29.621764077 211.0
29.634894359 195.0
29.648024642 222.0
29.661154925 223.0
29.674285207 195.0
29.687415490 216.0
29.700545773 235.0
29.713676055 222.0
29.726806338 210.0
29.739936621 205.0
29.753066903 204.0
29.766197186 219.0
29.779327469 212.0
29.792457751 224.0
29.805588034 231.0
29.818718317 240.0
29.831848599 200.0
29.844978882 213.0
29.858109165 217.0
29.871239447 233.0
29.884369730 214.0
29.897500013 201.0
29.910630296 206.0
29.923760578 242.0
29.936890861 235.0
29.950021144 217.0
29.963151426 214.0
29.976281709 175.0
29.989411992 242.0
30.002542274 190.0
30.015672557 195.0
30.028802840 185.0
30.041933122 221.0
30.055063405 216.0
30.068193688 197.0
30.081323970 205.0
30.094454253 222.0
30.107584536 203.0
30.120714818 220.0
30.133845101 218.0
30.146975384 188.0
30.160105666 187.0
30.173235949 230.0
30.186366232 200.0
30.199496514 209.0
30.212626797 214.0
30.225757080 191.0
30.238887362 212.0
30.252017645 195.0
30.265147928 217.0
30.278278210 193.0
30.291408493 216.0
30.304538776 214.0
30.317669058 203.0
30.330799341 203.0
30.343929624 211.0
30.357059907 213.0
30.370190189 237.0
30.383320472 196.0
30.396450755 231.0
30.409581037 201.0
30.422711320 201.0
30.435841603 223.0
30.448971885 208.0
30.462102168 216.0
30.475232451 215.0
30.488362733 201.0
30.501493016 202.0
30.514623299 200.0
30.527753581 215.0
30.540883864 206.0
30.554014147 211.0
30.567144429 208.0
30.580274712 206.0
30.593404995 220.0
30.606535277 221.0
30.619665560 221.0
30.632795843 178.0
30.645926125 229.0
30.659056408 216.0
30.672186691 227.0
30.685316973 204.0
30.698447256 202.0
30.711577539 174.0
30.724707821 212.0
30.737838104 181.0
30.750968387 205.0
30.764098669 191.0
30.777228952 216.0
30.790359235 212.0
30.803489517 228.0
30.816619800 175.0
30.829750083 191.0
30.842880366 206.0
30.856010648 214.0
30.869140931 204.0
30.882271214 172.0
30.895401496 184.0
30.908531779 207.0
30.921662062 210.0
30.934792344 196.0
30.947922627 211.0
30.961052910 210.0
30.974183192 204.0
30.987313475 212.0
31.000443758 214.0
31.013574040 200.0
31.026704323 178.0
31.039834606 218.0
31.052964888 219.0
31.066095171 210.0
31.079225454 195.0
31.092355736 195.0
31.105486019 240.0
31.118616302 200.0
31.131746584 177.0
31.144876867 200.0
31.158007150 186.0
31.171137432 178.0
31.184267715 183.0
31.197397998 194.0
31.210528280 199.0
31.223658563 193.0
31.236788846 176.0
31.249919128 234.0
31.263049411 166.0
31.276179694 193.0
31.289309977 195.0
31.302440259 169.0
31.315570542 180.0
31.328700825 190.0
31.341831107 193.0
31.354961390 188.0
31.368091673 195.0
31.381221955 213.0
31.394352238 200.0
31.407482521 208.0
31.420612803 169.0
31.433743086 176.0
31.446873369 193.0
31.460003651 190.0
31.473133934 198.0
31.486264217 197.0
31.499394499 189.0
31.512524782 195.0
31.525655065 203.0
31.538785347 192.0
31.551915630 179.0
31.565045913 204.0
31.578176195 204.0
31.591306478 194.0
31.604436761 188.0
31.617567043 202.0
31.630697326 206.0
31.643827609 196.0
31.656957891 174.0
31.670088174 192.0
31.683218457 177.0
31.696348739 190.0
31.709479022 191.0
31.722609305 164.0
31.735739588 177.0
31.748869870 196.0
31.762000153 194.0
31.775130436 219.0
31.788260718 181.0
31.801391001 183.0
31.814521284 179.0
31.827651566 176.0
31.840781849 229.0
31.853912132 183.0
31.867042414 189.0
31.880172697 181.0
31.893302980 190.0
31.906433262 221.0
31.919563545 172.0
31.932693828 185.0
31.945824110 208.0
31.958954393 176.0
31.972084676 209.0
31.985214958 203.0
31.998345241 182.0
32.011475524 208.0
32.024605806 171.0
32.037736089 174.0
32.050866372 170.0
32.063996654 159.0
32.077126937 196.0
32.090257220 198.0
32.103387502 192.0
32.116517785 187.0
32.129648068 207.0
32.142778350 172.0
32.155908633 209.0
32.169038916 213.0
32.182169198 210.0
32.195299481 169.0
32.208429764 182.0
32.221560047 202.0
32.234690329 187.0
32.247820612 197.0
32.260950895 199.0
32.274081177 167.0
32.287211460 173.0
32.300341743 202.0
32.313472025 179.0
32.326602308 200.0
32.339732591 186.0
32.352862873 182.0
32.365993156 207.0
32.379123439 175.0
32.392253721 167.0
32.405384004 207.0
32.418514287 188.0
32.431644569 193.0
32.444774852 208.0
32.457905135 174.0
32.471035417 154.0
32.484165700 193.0
32.497295983 182.0
32.510426265 205.0
32.523556548 193.0
32.536686831 189.0
32.549817113 164.0
32.562947396 178.0
32.576077679 170.0
32.589207961 190.0
32.602338244 174.0
32.615468527 165.0
32.628598809 197.0
32.641729092 201.0
32.654859375 173.0
32.667989658 179.0
32.681119940 164.0
32.694250223 184.0
32.707380506 185.0
32.720510788 190.0
32.733641071 176.0
32.746771354 175.0
32.759901636 148.0
32.773031919 199.0
32.786162202 197.0
32.799292484 180.0
32.812422767 167.0
32.825553050 190.0
32.838683332 179.0
32.851813615 182.0
32.864943898 182.0
32.878074180 136.0
32.891204463 157.0
32.904334746 210.0
32.917465028 196.0
32.930595311 182.0
32.943725594 171.0
32.956855876 166.0
32.969986159 174.0
32.983116442 165.0
32.996246724 172.0
33.009377007 180.0
33.022507290 178.0
33.035637572 172.0
33.048767855 203.0
33.061898138 179.0
33.075028420 177.0
33.088158703 178.0
33.101288986 187.0
33.114419268 171.0
33.127549551 192.0
33.140679834 199.0
33.153810117 164.0
33.166940399 177.0
33.180070682 186.0
33.193200965 161.0
33.206331247 186.0
33.219461530 169.0
33.232591813 179.0
33.245722095 180.0
33.258852378 172.0
33.271982661 165.0
33.285112943 175.0
33.298243226 177.0
33.311373509 188.0
33.324503791 211.0
33.337634074 166.0
33.350764357 147.0
33.363894639 178.0
33.377024922 176.0
33.390155205 173.0
33.403285487 171.0
33.416415770 174.0
33.429546053 171.0
33.442676335 168.0
33.455806618 160.0
33.468936901 163.0
33.482067183 149.0
33.495197466 171.0
33.508327749 174.0
33.521458031 172.0
33.534588314 175.0
33.547718597 167.0
33.560848879 165.0
33.573979162 168.0
33.587109445 144.0
33.600239728 152.0
33.613370010 179.0
33.626500293 187.0
33.639630576 147.0
33.652760858 170.0
33.665891141 201.0
33.679021424 166.0
33.692151706 164.0
33.705281989 154.0
33.718412272 182.0
33.731542554 159.0
33.744672837 169.0
33.757803120 196.0
33.770933402 187.0
33.784063685 166.0
33.797193968 165.0
33.810324250 180.0
33.823454533 156.0
33.836584816 165.0
33.849715098 166.0
33.862845381 141.0
33.875975664 162.0
33.889105946 177.0
33.902236229 168.0
33.915366512 163.0
33.928496794 166.0
33.941627077 171.0
33.954757360 182.0
33.967887642 147.0
33.981017925 160.0
33.994148208 165.0
34.007278490 155.0
34.020408773 175.0
34.033539056 155.0
34.046669339 155.0
34.059799621 167.0
34.072929904 170.0
34.086060187 147.0
34.099190469 161.0
34.112320752 173.0
34.125451035 165.0
34.138581317 171.0
34.151711600 168.0
34.164841883 176.0
34.177972165 154.0
34.191102448 168.0
34.204232731 161.0
34.217363013 184.0
34.230493296 163.0
34.243623579 177.0
34.256753861 152.0
34.269884144 141.0
34.283014427 170.0
34.296144709 177.0
34.309274992 170.0
34.322405275 175.0
34.335535557 163.0
34.348665840 162.0
34.361796123 170.0
34.374926405 164.0
34.388056688 161.0
34.401186971 150.0
34.414317253 159.0
34.427447536 162.0
34.440577819 135.0
34.453708101 186.0
34.466838384 169.0
34.479968667 146.0
34.493098949 155.0
34.506229232 158.0
34.519359515 150.0
34.532489798 151.0
34.545620080 151.0
34.558750363 137.0
34.571880646 142.0
34.585010928 172.0
34.598141211 167.0
34.611271494 175.0
34.624401776 186.0
34.637532059 150.0
34.650662342 153.0
34.663792624 166.0
34.676922907 151.0
34.690053190 147.0
34.703183472 136.0
34.716313755 152.0
34.729444038 175.0
34.742574320 156.0
34.755704603 145.0
34.768834886 140.0
34.781965168 173.0
34.795095451 131.0
34.808225734 186.0
34.821356016 172.0
34.834486299 177.0
34.847616582 163.0
34.860746864 159.0
34.873877147 171.0
34.887007430 162.0
34.900137712 153.0
34.913267995 140.0
34.926398278 167.0
34.939528560 148.0
34.952658843 175.0
34.965789126 161.0
34.978919409 141.0
34.992049691 156.0
35.005179974 158.0
35.018310257 167.0
35.031440539 166.0
35.044570822 152.0
35.057701105 140.0
35.070831387 153.0
35.083961670 147.0
35.097091953 177.0
35.110222235 143.0
35.123352518 166.0
35.136482801 132.0
35.149613083 140.0
35.162743366 172.0
35.175873649 161.0
35.189003931 150.0
35.202134214 157.0
35.215264497 161.0
35.228394779 127.0
35.241525062 159.0
35.254655345 152.0
35.267785627 131.0
35.280915910 179.0
35.294046193 159.0
35.307176475 161.0
35.320306758 127.0
35.333437041 155.0
35.346567323 153.0
35.359697606 150.0
35.372827889 164.0
35.385958171 149.0
35.399088454 163.0
35.412218737 173.0
35.425349019 146.0
35.438479302 175.0
35.451609585 144.0
35.464739868 139.0
35.477870150 158.0
35.491000433 155.0
35.504130716 156.0
35.517260998 163.0
35.530391281 150.0
35.543521564 144.0
35.556651846 153.0
35.569782129 165.0
35.582912412 169.0
35.596042694 179.0
35.609172977 154.0
35.622303260 157.0
35.635433542 155.0
35.648563825 155.0
35.661694108 153.0
35.674824390 158.0
35.687954673 157.0
35.701084956 169.0
35.714215238 154.0
35.727345521 161.0
35.740475804 141.0
35.753606086 174.0
35.766736369 141.0
35.779866652 157.0
35.792996934 140.0
35.806127217 157.0
35.819257500 142.0
35.832387782 137.0
35.845518065 145.0
35.858648348 153.0
35.871778630 163.0
35.884908913 137.0
35.898039196 151.0
35.911169479 147.0
35.924299761 140.0
35.937430044 161.0
35.950560327 134.0
35.963690609 149.0
35.976820892 178.0
35.989951175 139.0
36.003081457 150.0
36.016211740 146.0
36.029342023 129.0
36.042472305 157.0
36.055602588 158.0
36.068732871 157.0
36.081863153 131.0
36.094993436 136.0
36.108123719 135.0
36.121254001 134.0
36.134384284 152.0
36.147514567 155.0
36.160644849 162.0
36.173775132 155.0
36.186905415 149.0
36.200035697 130.0
36.213165980 143.0
36.226296263 139.0
36.239426545 134.0
36.252556828 122.0
36.265687111 144.0
36.278817393 159.0
36.291947676 137.0
36.305077959 146.0
36.318208241 146.0
36.331338524 154.0
36.344468807 146.0
36.357599090 164.0
36.370729372 158.0
36.383859655 119.0
36.396989938 152.0
36.410120220 131.0
36.423250503 158.0
36.436380786 155.0
36.449511068 136.0
36.462641351 144.0
36.475771634 141.0
36.488901916 133.0
36.502032199 152.0
36.515162482 135.0
36.528292764 148.0
36.541423047 158.0
36.554553330 145.0
36.567683612 147.0
36.580813895 163.0
36.593944178 146.0
36.607074460 150.0
36.620204743 135.0
36.633335026 141.0
36.646465308 152.0
36.659595591 141.0
36.672725874 170.0
36.685856156 134.0
36.698986439 141.0
36.712116722 127.0
36.725247004 150.0
36.738377287 140.0
36.751507570 148.0
36.764637852 139.0
36.777768135 126.0
36.790898418 129.0
36.804028700 151.0
36.817158983 157.0
36.830289266 133.0
36.843419549 137.0
36.856549831 149.0
36.869680114 157.0
36.882810397 154.0
36.895940679 129.0
36.909070962 145.0
36.922201245 127.0
36.935331527 138.0
36.948461810 139.0
36.961592093 139.0
36.974722375 144.0
36.987852658 125.0
37.000982941 140.0
37.014113223 125.0
37.027243506 142.0
37.040373789 139.0
37.053504071 149.0
37.066634354 145.0
37.079764637 159.0
37.092894919 143.0
37.106025202 130.0
37.119155485 158.0
37.132285767 141.0
37.145416050 130.0
37.158546333 146.0
37.171676615 137.0
37.184806898 112.0
37.197937181 129.0
37.211067463 120.0
37.224197746 132.0
37.237328029 145.0
37.250458311 126.0
37.263588594 123.0
37.276718877 130.0
37.289849160 146.0
37.302979442 105.0
37.316109725 134.0
37.329240008 140.0
37.342370290 111.0
37.355500573 148.0
37.368630856 128.0
37.381761138 127.0
37.394891421 138.0
37.408021704 125.0
37.421151986 153.0
37.434282269 121.0
37.447412552 139.0
37.460542834 119.0
37.473673117 147.0
37.486803400 141.0
37.499933682 136.0
37.513063965 124.0
37.526194248 148.0
37.539324530 126.0
37.552454813 147.0
37.565585096 128.0
37.578715378 152.0
37.591845661 144.0
37.604975944 135.0
37.618106226 131.0
37.631236509 132.0
37.644366792 154.0
37.657497074 131.0
37.670627357 122.0
37.683757640 113.0
37.696887922 141.0
37.710018205 149.0
37.723148488 149.0
37.736278770 150.0
37.749409053 156.0
37.762539336 142.0
37.775669619 137.0
37.788799901 150.0
37.801930184 138.0
37.815060467 135.0
37.828190749 149.0
37.841321032 163.0
37.854451315 152.0
37.867581597 141.0
37.880711880 143.0
37.893842163 155.0
37.906972445 133.0
37.920102728 133.0
37.933233011 127.0
37.946363293 148.0
37.959493576 156.0
37.972623859 149.0
37.985754141 120.0
37.998884424 124.0
38.012014707 142.0
38.025144989 121.0
38.038275272 142.0
38.051405555 142.0
38.064535837 144.0
38.077666120 146.0
38.090796403 138.0
38.103926685 146.0
38.117056968 120.0
38.130187251 152.0
38.143317533 113.0
38.156447816 131.0
38.169578099 141.0
38.182708381 140.0
38.195838664 139.0
38.208968947 135.0
38.222099230 157.0
38.235229512 122.0
38.248359795 129.0
38.261490078 133.0
38.274620360 146.0
38.287750643 118.0
38.300880926 140.0
38.314011208 156.0
38.327141491 128.0
38.340271774 117.0
38.353402056 121.0
38.366532339 146.0
38.379662622 122.0
38.392792904 139.0
38.405923187 143.0
38.419053470 140.0
38.432183752 112.0
38.445314035 132.0
38.458444318 123.0
38.471574600 118.0
38.484704883 140.0
38.497835166 129.0
38.510965448 133.0
38.524095731 146.0
38.537226014 141.0
38.550356296 159.0
38.563486579 121.0
38.576616862 144.0
38.589747144 134.0
38.602877427 123.0
38.616007710 125.0
38.629137992 131.0
38.642268275 133.0
38.655398558 147.0
38.668528840 120.0
38.681659123 144.0
38.694789406 130.0
38.707919689 122.0
38.721049971 124.0
38.734180254 139.0
38.747310537 136.0
38.760440819 158.0
38.773571102 117.0
38.786701385 115.0
38.799831667 129.0
38.812961950 146.0
38.826092233 127.0
38.839222515 138.0
38.852352798 123.0
38.865483081 136.0
38.878613363 144.0
38.891743646 130.0
38.904873929 134.0
38.918004211 130.0
38.931134494 124.0
38.944264777 113.0
38.957395059 130.0
38.970525342 114.0
38.983655625 130.0
38.996785907 129.0
39.009916190 136.0
39.023046473 124.0
39.036176755 137.0
39.049307038 134.0
39.062437321 126.0
39.075567603 126.0
39.088697886 104.0
39.101828169 150.0
39.114958451 134.0
39.128088734 144.0
39.141219017 133.0
39.154349300 130.0
39.167479582 130.0
39.180609865 127.0
39.193740148 127.0
39.206870430 126.0
39.220000713 150.0
39.233130996 124.0
39.246261278 127.0
39.259391561 128.0
39.272521844 132.0
39.285652126 132.0
39.298782409 150.0
39.311912692 125.0
39.325042974 126.0
39.338173257 122.0
39.351303540 124.0
39.364433822 137.0
39.377564105 111.0
39.390694388 133.0
39.403824670 107.0
39.416954953 115.0
39.430085236 112.0
39.443215518 141.0
39.456345801 138.0
39.469476084 125.0
39.482606366 126.0
39.495736649 130.0
39.508866932 116.0
39.521997214 119.0
39.535127497 130.0
39.548257780 148.0
39.561388062 138.0
39.574518345 134.0
39.587648628 140.0
39.600778911 116.0
39.613909193 123.0
39.627039476 124.0
39.640169759 116.0
39.653300041 136.0
39.666430324 108.0
39.679560607 124.0
39.692690889 111.0
39.705821172 124.0
39.718951455 130.0
39.732081737 137.0
39.745212020 138.0
39.758342303 131.0
39.771472585 128.0
39.784602868 114.0
39.797733151 116.0
39.810863433 139.0
39.823993716 142.0
39.837123999 117.0
39.850254281 128.0
39.863384564 130.0
39.876514847 126.0
39.889645129 112.0
39.902775412 150.0
39.915905695 129.0
39.929035977 111.0
39.942166260 110.0
39.955296543 123.0
39.968426825 129.0
39.981557108 125.0
39.994687391 138.0
40.007817673 122.0
40.020947956 135.0
40.034078239 139.0
40.047208521 123.0
40.060338804 125.0
40.073469087 137.0
40.086599370 121.0
40.099729652 116.0
40.112859935 122.0
40.125990218 117.0
40.139120500 112.0
40.152250783 122.0
40.165381066 136.0
40.178511348 140.0
40.191641631 121.0
40.204771914 148.0
40.217902196 129.0
40.231032479 127.0
40.244162762 152.0
40.257293044 139.0
40.270423327 136.0
40.283553610 119.0
40.296683892 114.0
40.309814175 147.0
40.322944458 126.0
40.336074740 139.0
40.349205023 128.0
40.362335306 137.0
40.375465588 165.0
40.388595871 133.0
40.401726154 112.0
40.414856436 117.0
40.427986719 147.0
40.441117002 117.0
40.454247284 112.0
40.467377567 109.0
40.480507850 139.0
40.493638132 125.0
40.506768415 143.0
40.519898698 131.0
40.533028981 113.0
40.546159263 125.0
40.559289546 122.0
40.572419829 147.0
40.585550111 108.0
40.598680394 110.0
40.611810677 122.0
40.624940959 99.0
40.638071242 129.0
40.651201525 138.0
40.664331807 127.0
40.677462090 119.0
40.690592373 149.0
40.703722655 116.0
40.716852938 128.0
40.729983221 112.0
40.743113503 117.0
40.756243786 114.0
40.769374069 120.0
40.782504351 120.0
40.795634634 122.0
40.808764917 110.0
40.821895199 128.0
40.835025482 131.0
40.848155765 124.0
40.861286047 120.0
40.874416330 132.0
40.887546613 124.0
40.900676895 113.0
40.913807178 103.0
40.926937461 134.0
40.940067743 132.0
40.953198026 120.0
40.966328309 120.0
40.979458591 134.0
40.992588874 131.0
41.005719157 133.0
41.018849440 134.0
41.031979722 138.0
41.045110005 132.0
41.058240288 142.0
41.071370570 131.0
41.084500853 132.0
41.097631136 106.0
41.110761418 129.0
41.123891701 128.0
41.137021984 131.0
41.150152266 125.0
41.163282549 120.0
41.176412832 120.0
41.189543114 124.0
41.202673397 123.0
41.215803680 107.0
41.228933962 138.0
41.242064245 117.0
41.255194528 116.0
41.268324810 116.0
41.281455093 135.0
41.294585376 143.0
41.307715658 113.0
41.320845941 125.0
41.333976224 122.0
41.347106506 124.0
41.360236789 134.0
41.373367072 123.0
41.386497354 132.0
41.399627637 123.0
41.412757920 132.0
41.425888202 117.0
41.439018485 114.0
41.452148768 124.0
41.465279051 137.0
41.478409333 128.0
41.491539616 111.0
41.504669899 120.0
41.517800181 124.0
41.530930464 103.0
41.544060747 127.0
41.557191029 114.0
41.570321312 119.0
41.583451595 103.0
41.596581877 123.0
41.609712160 104.0
41.622842443 134.0
41.635972725 130.0
41.649103008 122.0
41.662233291 112.0
41.675363573 129.0
41.688493856 127.0
41.701624139 122.0
41.714754421 120.0
41.727884704 102.0
41.741014987 135.0
41.754145269 114.0
41.767275552 103.0
41.780405835 136.0
41.793536117 122.0
41.806666400 132.0
41.819796683 119.0
41.832926965 115.0
41.846057248 103.0
41.859187531 115.0
41.872317813 110.0
41.885448096 119.0
41.898578379 109.0
41.911708662 143.0
41.924838944 139.0
41.937969227 119.0
41.951099510 111.0
41.964229792 118.0
41.977360075 109.0
41.990490358 136.0
42.003620640 122.0
42.016750923 103.0
42.029881206 112.0
42.043011488 132.0
42.056141771 121.0
42.069272054 136.0
42.082402336 115.0
42.095532619 129.0
42.108662902 117.0
42.121793184 116.0
42.134923467 136.0
42.148053750 117.0
42.161184032 113.0
42.174314315 116.0
42.187444598 125.0
42.200574880 106.0
42.213705163 118.0
42.226835446 93.0
42.239965728 111.0
42.253096011 118.0
42.266226294 119.0
42.279356576 145.0
42.292486859 124.0
42.305617142 122.0
42.318747424 113.0
42.331877707 119.0
42.345007990 126.0
42.358138272 128.0
42.371268555 116.0
42.384398838 110.0
42.397529121 127.0
42.410659403 133.0
42.423789686 156.0
42.436919969 133.0
42.450050251 135.0
42.463180534 132.0
42.476310817 149.0
42.489441099 128.0
42.502571382 138.0
42.515701665 135.0
42.528831947 161.0
42.541962230 142.0
42.555092513 139.0
42.568222795 138.0
42.581353078 111.0
42.594483361 116.0
42.607613643 119.0
42.620743926 98.0
42.633874209 108.0
42.647004491 138.0
42.660134774 132.0
42.673265057 130.0
42.686395339 127.0
42.699525622 136.0
42.712655905 118.0
42.725786187 113.0
42.738916470 107.0
42.752046753 142.0
42.765177035 112.0
42.778307318 122.0
42.791437601 126.0
42.804567883 103.0
42.817698166 111.0
42.830828449 134.0
42.843958732 125.0
42.857089014 104.0
42.870219297 109.0
42.883349580 102.0
42.896479862 119.0
42.909610145 124.0
42.922740428 121.0
42.935870710 109.0
42.949000993 127.0
42.962131276 113.0
42.975261558 119.0
42.988391841 139.0
43.001522124 122.0
43.014652406 113.0
43.027782689 123.0
43.040912972 119.0
43.054043254 105.0
43.067173537 109.0
43.080303820 105.0
43.093434102 101.0
43.106564385 130.0
43.119694668 96.0
43.132824950 101.0
43.145955233 117.0
43.159085516 132.0
43.172215798 110.0
43.185346081 134.0
43.198476364 108.0
43.211606646 107.0
43.224736929 115.0
43.237867212 113.0
43.250997494 121.0
43.264127777 118.0
43.277258060 106.0
43.290388342 108.0
43.303518625 131.0
43.316648908 115.0
43.329779191 110.0
43.342909473 112.0
43.356039756 119.0
43.369170039 126.0
43.382300321 141.0
43.395430604 129.0
43.408560887 128.0
43.421691169 119.0
43.434821452 117.0
43.447951735 112.0
43.461082017 112.0
43.474212300 126.0
43.487342583 130.0
43.500472865 122.0
43.513603148 118.0
43.526733431 122.0
43.539863713 124.0
43.552993996 116.0
43.566124279 118.0
43.579254561 116.0
43.592384844 114.0
43.605515127 124.0
43.618645409 111.0
43.631775692 115.0
43.644905975 130.0
43.658036257 117.0
43.671166540 137.0
43.684296823 109.0
43.697427105 113.0
43.710557388 124.0
43.723687671 101.0
43.736817953 115.0
43.749948236 117.0
43.763078519 132.0
43.776208802 128.0
43.789339084 104.0
43.802469367 122.0
43.815599650 110.0
43.828729932 119.0
43.841860215 121.0
43.854990498 114.0
43.868120780 119.0
43.881251063 127.0
43.894381346 114.0
43.907511628 108.0
43.920641911 115.0
43.933772194 111.0
43.946902476 117.0
43.960032759 120.0
43.973163042 114.0
43.986293324 98.0
43.999423607 122.0
44.012553890 98.0
44.025684172 115.0
44.038814455 108.0
44.051944738 120.0
44.065075020 104.0
44.078205303 101.0
44.091335586 122.0
44.104465868 112.0
44.117596151 108.0
44.130726434 109.0
44.143856716 103.0
44.156986999 118.0
44.170117282 100.0
44.183247564 131.0
44.196377847 114.0
44.209508130 105.0
44.222638413 109.0
44.235768695 115.0
44.248898978 121.0
44.262029261 131.0
44.275159543 116.0
44.288289826 125.0
44.301420109 105.0
44.314550391 115.0
44.327680674 117.0
44.340810957 113.0
44.353941239 107.0
44.367071522 126.0
44.380201805 105.0
44.393332087 128.0
44.406462370 119.0
44.419592653 104.0
44.432722935 103.0
44.445853218 138.0
44.458983501 143.0
44.472113783 121.0
44.485244066 113.0
44.498374349 116.0
44.511504631 101.0
44.524634914 130.0
44.537765197 115.0
44.550895479 109.0
44.564025762 126.0
44.577156045 97.0
44.590286327 102.0
44.603416610 97.0
44.616546893 97.0
44.629677175 116.0
44.642807458 114.0
44.655937741 135.0
44.669068023 117.0
44.682198306 114.0
44.695328589 127.0
44.708458872 123.0
44.721589154 112.0
44.734719437 122.0
44.747849720 117.0
44.760980002 101.0
44.774110285 117.0
44.787240568 104.0
44.800370850 117.0
44.813501133 117.0
44.826631416 116.0
44.839761698 113.0
44.852891981 93.0
44.866022264 110.0
44.879152546 122.0
44.892282829 114.0
44.905413112 113.0
44.918543394 126.0
44.931673677 86.0
44.944803960 124.0
44.957934242 120.0
44.971064525 124.0
44.984194808 106.0
44.997325090 117.0
45.010455373 108.0
45.023585656 78.0
45.036715938 88.0
45.049846221 101.0
45.062976504 98.0
45.076106786 96.0
45.089237069 121.0
45.102367352 109.0
45.115497634 93.0
45.128627917 107.0
45.141758200 100.0
45.154888483 108.0
45.168018765 96.0
45.181149048 120.0
45.194279331 91.0
45.207409613 99.0
45.220539896 113.0
45.233670179 105.0
45.246800461 97.0
45.259930744 104.0
45.273061027 107.0
45.286191309 81.0
45.299321592 102.0
45.312451875 95.0
45.325582157 111.0
45.338712440 96.0
45.351842723 110.0
45.364973005 93.0
45.378103288 109.0
45.391233571 109.0
45.404363853 111.0
45.417494136 103.0
45.430624419 103.0
45.443754701 121.0
45.456884984 109.0
45.470015267 107.0
45.483145549 104.0
45.496275832 114.0
45.509406115 92.0
45.522536397 86.0
45.535666680 128.0
45.548796963 97.0
45.561927245 93.0
45.575057528 94.0
45.588187811 126.0
45.601318093 112.0
45.614448376 112.0
45.627578659 122.0
45.640708942 109.0
45.653839224 97.0
45.666969507 113.0
45.680099790 108.0
45.693230072 98.0
45.706360355 100.0
45.719490638 128.0
45.732620920 136.0
45.745751203 115.0
45.758881486 114.0
45.772011768 128.0
45.785142051 111.0
45.798272334 115.0
45.811402616 139.0
45.824532899 103.0
45.837663182 117.0
45.850793464 124.0
45.863923747 105.0
45.877054030 116.0
45.890184312 134.0
45.903314595 131.0
45.916444878 85.0
45.929575160 113.0
45.942705443 121.0
45.955835726 143.0
45.968966008 129.0
45.982096291 123.0
45.995226574 132.0
46.008356856 129.0
46.021487139 127.0
46.034617422 123.0
46.047747704 112.0
46.060877987 106.0
46.074008270 108.0
46.087138553 106.0
46.100268835 114.0
46.113399118 121.0
46.126529401 119.0
46.139659683 99.0
46.152789966 104.0
46.165920249 117.0
46.179050531 125.0
46.192180814 117.0
46.205311097 119.0
46.218441379 134.0
46.231571662 120.0
46.244701945 133.0
46.257832227 92.0
46.270962510 129.0
46.284092793 122.0
46.297223075 113.0
46.310353358 116.0
46.323483641 108.0
46.336613923 134.0
46.349744206 123.0
46.362874489 129.0
46.376004771 107.0
46.389135054 118.0
46.402265337 119.0
46.415395619 109.0
46.428525902 133.0
46.441656185 125.0
46.454786467 112.0
46.467916750 110.0
46.481047033 132.0
46.494177315 129.0
46.507307598 109.0
46.520437881 130.0
46.533568164 108.0
46.546698446 114.0
46.559828729 110.0
46.572959012 91.0
46.586089294 135.0
46.599219577 117.0
46.612349860 132.0
46.625480142 104.0
46.638610425 115.0
46.651740708 137.0
46.664870990 126.0
46.678001273 128.0
46.691131556 128.0
46.704261838 129.0
46.717392121 138.0
46.730522404 132.0
46.743652686 124.0
46.756782969 127.0
46.769913252 129.0
46.783043534 123.0
46.796173817 121.0
46.809304100 125.0
46.822434382 148.0
46.835564665 137.0
46.848694948 158.0
46.861825230 144.0
46.874955513 144.0
46.888085796 159.0
46.901216078 130.0
46.914346361 172.0
46.927476644 155.0
46.940606926 152.0
46.953737209 184.0
46.966867492 180.0
46.979997774 179.0
46.993128057 197.0
47.006258340 221.0
47.019388623 189.0
47.032518905 227.0
47.045649188 249.0
47.058779471 268.0
47.071909753 265.0
47.085040036 280.0
47.098170319 312.0
47.111300601 334.0
47.124430884 370.0
47.137561167 383.0
47.150691449 383.0
47.163821732 464.0
47.176952015 483.0
47.190082297 589.0
47.203212580 686.0
47.216342863 924.0
47.229473145 1204.0
47.242603428 1403.0
47.255733711 1886.0
47.268863993 2513.0
47.281994276 3179.0
47.295124559 4223.0
47.308254841 5230.0
47.321385124 5722.0
47.334515407 4731.0
47.347645689 3200.0
47.360775972 2181.0
47.373906255 1819.0
47.387036537 1672.0
47.400166820 1839.0
47.413297103 2118.0
47.426427385 2682.0
47.439557668 3023.0
47.452687951 2806.0
47.465818234 2052.0
47.478948516 1298.0
47.492078799 962.0
47.505209082 629.0
47.518339364 560.0
47.531469647 457.0
47.544599930 382.0
47.557730212 344.0
47.570860495 317.0
47.583990778 290.0
47.597121060 261.0
47.610251343 241.0
47.623381626 210.0
47.636511908 213.0
47.649642191 213.0
47.662772474 196.0
47.675902756 168.0
47.689033039 171.0
47.702163322 167.0
47.715293604 200.0
47.728423887 150.0
47.741554170 156.0
47.754684452 159.0
47.767814735 173.0
47.780945018 156.0
47.794075300 136.0
47.807205583 132.0
47.820335866 148.0
47.833466148 155.0
47.846596431 135.0
47.859726714 131.0
47.872856996 129.0
47.885987279 129.0
47.899117562 123.0
47.912247844 120.0
47.925378127 128.0
47.938508410 124.0
47.951638693 124.0
47.964768975 134.0
47.977899258 123.0
47.991029541 123.0
48.004159823 119.0
48.017290106 131.0
48.030420389 151.0
48.043550671 119.0
48.056680954 113.0
48.069811237 133.0
48.082941519 88.0
48.096071802 115.0
48.109202085 122.0
48.122332367 126.0
48.135462650 113.0
48.148592933 98.0
48.161723215 126.0
48.174853498 104.0
48.187983781 114.0
48.201114063 104.0
48.214244346 95.0
48.227374629 101.0
48.240504911 111.0
48.253635194 115.0
48.266765477 111.0
48.279895759 105.0
48.293026042 130.0
48.306156325 125.0
48.319286607 104.0
48.332416890 116.0
48.345547173 98.0
48.358677455 98.0
48.371807738 107.0
48.384938021 127.0
48.398068304 119.0
48.411198586 118.0
48.424328869 102.0
48.437459152 105.0
48.450589434 104.0
48.463719717 103.0
48.476850000 97.0
48.489980282 91.0
48.503110565 110.0
48.516240848 105.0
48.529371130 110.0
48.542501413 104.0
48.555631696 112.0
48.568761978 115.0
48.581892261 95.0
48.595022544 97.0
48.608152826 112.0
48.621283109 88.0
48.634413392 110.0
48.647543674 96.0
48.660673957 112.0
48.673804240 119.0
48.686934522 121.0
48.700064805 100.0
48.713195088 118.0
48.726325370 103.0
48.739455653 111.0
48.752585936 117.0
48.765716218 130.0
48.778846501 121.0
48.791976784 88.0
48.805107066 115.0
48.818237349 108.0
48.831367632 107.0
48.844497915 117.0
48.857628197 101.0
48.870758480 114.0
48.883888763 106.0
48.897019045 97.0
48.910149328 100.0
48.923279611 111.0
48.936409893 116.0
48.949540176 126.0
48.962670459 100.0
48.975800741 101.0
48.988931024 92.0
49.002061307 97.0
49.015191589 111.0
49.028321872 106.0
49.041452155 100.0
49.054582437 90.0
49.067712720 106.0
49.080843003 90.0
49.093973285 102.0
49.107103568 109.0
49.120233851 133.0
49.133364133 102.0
49.146494416 101.0
49.159624699 84.0
49.172754981 89.0
49.185885264 92.0
49.199015547 97.0
49.212145829 95.0
49.225276112 107.0
49.238406395 92.0
49.251536677 113.0
49.264666960 87.0
49.277797243 95.0
49.290927525 84.0
49.304057808 101.0
49.317188091 103.0
49.330318374 100.0
49.343448656 100.0
49.356578939 97.0
49.369709222 91.0
49.382839504 101.0
49.395969787 98.0
49.409100070 97.0
49.422230352 103.0
49.435360635 95.0
49.448490918 98.0
49.461621200 105.0
49.474751483 107.0
49.487881766 97.0
49.501012048 100.0
49.514142331 98.0
49.527272614 112.0
49.540402896 95.0
49.553533179 93.0
49.566663462 91.0
49.579793744 89.0
49.592924027 100.0
49.606054310 83.0
49.619184592 96.0
49.632314875 81.0
49.645445158 80.0
49.658575440 92.0
49.671705723 89.0
49.684836006 84.0
49.697966288 90.0
49.711096571 98.0
49.724226854 110.0
49.737357136 101.0
49.750487419 97.0
49.763617702 99.0
49.776747985 111.0
49.789878267 99.0
49.803008550 107.0
49.816138833 95.0
49.829269115 111.0
49.842399398 109.0
49.855529681 100.0
49.868659963 90.0
49.881790246 104.0
49.894920529 104.0
49.908050811 95.0
49.921181094 104.0
49.934311377 95.0
49.947441659 104.0
49.960571942 101.0
49.973702225 91.0
49.986832507 76.0
49.999962790 104.0
50.013093073 103.0
50.026223355 89.0
50.039353638 90.0
50.052483921 92.0
50.065614203 98.0
50.078744486 107.0
50.091874769 79.0
50.105005051 79.0
50.118135334 79.0
50.131265617 95.0
50.144395899 102.0
50.157526182 100.0
50.170656465 110.0
50.183786747 100.0
50.196917030 91.0
50.210047313 91.0
50.223177595 107.0
50.236307878 92.0
50.249438161 89.0
50.262568444 103.0
50.275698726 99.0
50.288829009 110.0
50.301959292 102.0
50.315089574 101.0
50.328219857 103.0
50.341350140 111.0
50.354480422 118.0
50.367610705 88.0
50.380740988 96.0
50.393871270 87.0
50.407001553 92.0
50.420131836 102.0
50.433262118 106.0
50.446392401 102.0
50.459522684 102.0
50.472652966 81.0
50.485783249 82.0
50.498913532 98.0
50.512043814 93.0
50.525174097 98.0
50.538304380 100.0
50.551434662 93.0
50.564564945 93.0
50.577695228 81.0
50.590825510 88.0
50.603955793 82.0
50.617086076 80.0
50.630216358 87.0
50.643346641 93.0
50.656476924 84.0
50.669607206 128.0
50.682737489 88.0
50.695867772 89.0
50.708998055 75.0
50.722128337 111.0
50.735258620 89.0
50.748388903 92.0
50.761519185 94.0
50.774649468 99.0
50.787779751 87.0
50.800910033 83.0
50.814040316 99.0
50.827170599 89.0
50.840300881 104.0
50.853431164 97.0
50.866561447 87.0
50.879691729 109.0
50.892822012 84.0
50.905952295 82.0
50.919082577 110.0
50.932212860 90.0
50.945343143 97.0
50.958473425 83.0
50.971603708 80.0
50.984733991 89.0
50.997864273 112.0
51.010994556 92.0
51.024124839 103.0
51.037255121 86.0
51.050385404 83.0
51.063515687 100.0
51.076645969 99.0
51.089776252 93.0
51.102906535 81.0
51.116036817 85.0
51.129167100 94.0
51.142297383 95.0
51.155427665 86.0
51.168557948 92.0
51.181688231 104.0
51.194818514 85.0
51.207948796 78.0
51.221079079 84.0
51.234209362 86.0
51.247339644 105.0
51.260469927 78.0
51.273600210 85.0
51.286730492 86.0
51.299860775 87.0
51.312991058 96.0
51.326121340 88.0
51.339251623 78.0
51.352381906 85.0
51.365512188 93.0
51.378642471 76.0
51.391772754 84.0
51.404903036 97.0
51.418033319 89.0
51.431163602 99.0
51.444293884 104.0
51.457424167 101.0
51.470554450 107.0
51.483684732 75.0
51.496815015 82.0
51.509945298 95.0
51.523075580 104.0
51.536205863 87.0
51.549336146 87.0
51.562466428 98.0
51.575596711 103.0
51.588726994 84.0
51.601857276 78.0
51.614987559 110.0
51.628117842 104.0
51.641248125 91.0
51.654378407 94.0
51.667508690 105.0
51.680638973 97.0
51.693769255 90.0
51.706899538 89.0
51.720029821 100.0
51.733160103 82.0
51.746290386 82.0
51.759420669 90.0
51.772550951 61.0
51.785681234 94.0
51.798811517 99.0
51.811941799 96.0
51.825072082 81.0
51.838202365 94.0
51.851332647 86.0
51.864462930 82.0
51.877593213 78.0
51.890723495 87.0
51.903853778 101.0
51.916984061 64.0
51.930114343 85.0
51.943244626 86.0
51.956374909 102.0
51.969505191 83.0
51.982635474 94.0
51.995765757 91.0
52.008896039 82.0
52.022026322 103.0
52.035156605 104.0
52.048286887 84.0
52.061417170 76.0
52.074547453 91.0
52.087677736 90.0
52.100808018 87.0
52.113938301 81.0
52.127068584 100.0
52.140198866 83.0
52.153329149 102.0
52.166459432 98.0
52.179589714 94.0
52.192719997 84.0
52.205850280 98.0
52.218980562 84.0
52.232110845 83.0
52.245241128 78.0
52.258371410 79.0
52.271501693 84.0
52.284631976 78.0
52.297762258 84.0
52.310892541 77.0
52.324022824 81.0
52.337153106 95.0
52.350283389 88.0
52.363413672 73.0
52.376543954 80.0
52.389674237 80.0
52.402804520 73.0
52.415934802 69.0
52.429065085 93.0
52.442195368 63.0
52.455325650 109.0
52.468455933 81.0
52.481586216 89.0
52.494716498 86.0
52.507846781 93.0
52.520977064 85.0
52.534107346 64.0
52.547237629 80.0
52.560367912 85.0
52.573498195 94.0
52.586628477 84.0
52.599758760 90.0
52.612889043 89.0
52.626019325 69.0
52.639149608 93.0
52.652279891 81.0
52.665410173 80.0
52.678540456 81.0
52.691670739 76.0
52.704801021 81.0
52.717931304 86.0
52.731061587 98.0
52.744191869 83.0
52.757322152 87.0
52.770452435 82.0
52.783582717 92.0
52.796713000 103.0
52.809843283 94.0
52.822973565 83.0
52.836103848 101.0
52.849234131 73.0
52.862364413 72.0
52.875494696 85.0
52.888624979 85.0
52.901755261 86.0
52.914885544 84.0
52.928015827 59.0
52.941146109 85.0
52.954276392 89.0
52.967406675 87.0
52.980536957 93.0
52.993667240 95.0
53.006797523 81.0
53.019927806 86.0
53.033058088 91.0
53.046188371 61.0
53.059318654 91.0
53.072448936 102.0
53.085579219 72.0
53.098709502 88.0
53.111839784 81.0
53.124970067 84.0
53.138100350 88.0
53.151230632 94.0
53.164360915 95.0
53.177491198 65.0
53.190621480 88.0
53.203751763 102.0
53.216882046 76.0
53.230012328 103.0
53.243142611 81.0
53.256272894 77.0
53.269403176 80.0
53.282533459 96.0
53.295663742 81.0
53.308794024 80.0
53.321924307 82.0
53.335054590 92.0
53.348184872 74.0
53.361315155 85.0
53.374445438 85.0
53.387575720 74.0
53.400706003 65.0
53.413836286 106.0
53.426966568 77.0
53.440096851 109.0
53.453227134 80.0
53.466357416 80.0
53.479487699 94.0
53.492617982 56.0
53.505748265 73.0
53.518878547 96.0
53.532008830 82.0
53.545139113 76.0
53.558269395 75.0
53.571399678 83.0
53.584529961 86.0
53.597660243 76.0
53.610790526 88.0
53.623920809 84.0
53.637051091 73.0
53.650181374 101.0
53.663311657 96.0
53.676441939 104.0
53.689572222 79.0
53.702702505 98.0
53.715832787 71.0
53.728963070 88.0
53.742093353 78.0
53.755223635 76.0
53.768353918 77.0
53.781484201 105.0
53.794614483 81.0
53.807744766 69.0
53.820875049 87.0
53.834005331 75.0
53.847135614 81.0
53.860265897 78.0
53.873396179 69.0
53.886526462 64.0
53.899656745 82.0
53.912787027 89.0
53.925917310 78.0
53.939047593 89.0
53.952177876 80.0
53.965308158 59.0
53.978438441 72.0
53.991568724 74.0
54.004699006 67.0
54.017829289 77.0
54.030959572 90.0
54.044089854 65.0
54.057220137 93.0
54.070350420 84.0
54.083480702 96.0
54.096610985 97.0
54.109741268 77.0
54.122871550 82.0
54.136001833 77.0
54.149132116 94.0
54.162262398 80.0
54.175392681 91.0
54.188522964 77.0
54.201653246 79.0
54.214783529 90.0
54.227913812 79.0
54.241044094 76.0
54.254174377 82.0
54.267304660 78.0
54.280434942 75.0
54.293565225 84.0
54.306695508 59.0
54.319825790 78.0
54.332956073 90.0
54.346086356 80.0
54.359216638 93.0
54.372346921 85.0
54.385477204 91.0
54.398607487 91.0
54.411737769 90.0
54.424868052 77.0
54.437998335 88.0
54.451128617 92.0
54.464258900 108.0
54.477389183 96.0
54.490519465 99.0
54.503649748 76.0
54.516780031 82.0
54.529910313 84.0
54.543040596 73.0
54.556170879 91.0
54.569301161 80.0
54.582431444 67.0
54.595561727 87.0
54.608692009 83.0
54.621822292 104.0
54.634952575 97.0
54.648082857 73.0
54.661213140 98.0
54.674343423 83.0
54.687473705 75.0
54.700603988 99.0
54.713734271 73.0
54.726864553 89.0
54.739994836 78.0
54.753125119 90.0
54.766255401 76.0
54.779385684 100.0
54.792515967 75.0
54.805646249 103.0
54.818776532 76.0
54.831906815 117.0
54.845037097 104.0
54.858167380 104.0
54.871297663 83.0
54.884427946 87.0
54.897558228 94.0
54.910688511 94.0
54.923818794 96.0
54.936949076 88.0
54.950079359 95.0
54.963209642 98.0
54.976339924 85.0
54.989470207 78.0
55.002600490 89.0
55.015730772 96.0
55.028861055 78.0
55.041991338 92.0
55.055121620 95.0
55.068251903 88.0
55.081382186 78.0
55.094512468 85.0
55.107642751 72.0
55.120773034 73.0
55.133903316 76.0
55.147033599 63.0
55.160163882 92.0
55.173294164 75.0
55.186424447 86.0
55.199554730 78.0
55.212685012 98.0
55.225815295 81.0
55.238945578 66.0
55.252075860 73.0
55.265206143 75.0
55.278336426 104.0
55.291466708 97.0
55.304596991 86.0
55.317727274 98.0
55.330857557 91.0
55.343987839 84.0
55.357118122 103.0
55.370248405 82.0
55.383378687 79.0
55.396508970 86.0
55.409639253 88.0
55.422769535 89.0
55.435899818 90.0
55.449030101 96.0
55.462160383 98.0
55.475290666 97.0
55.488420949 85.0
55.501551231 86.0
55.514681514 111.0
55.527811797 95.0
55.540942079 111.0
55.554072362 90.0
55.567202645 93.0
55.580332927 88.0
55.593463210 90.0
55.606593493 95.0
55.619723775 102.0
55.632854058 96.0
55.645984341 109.0
55.659114623 104.0
55.672244906 102.0
55.685375189 100.0
55.698505471 106.0
55.711635754 105.0
55.724766037 89.0
55.737896319 94.0
55.751026602 147.0
55.764156885 121.0
55.777287167 109.0
55.790417450 137.0
55.803547733 144.0
55.816678016 137.0
55.829808298 158.0
55.842938581 179.0
55.856068864 177.0
55.869199146 168.0
55.882329429 198.0
55.895459712 179.0
55.908589994 184.0
55.921720277 188.0
55.934850560 199.0
55.947980842 235.0
55.961111125 240.0
55.974241408 283.0
55.987371690 300.0
56.000501973 322.0
56.013632256 397.0
56.026762538 442.0
56.039892821 549.0
56.053023104 741.0
56.066153386 983.0
56.079283669 1202.0
56.092413952 1612.0
56.105544234 1969.0
56.118674517 2524.0
56.131804800 2819.0
56.144935082 2621.0
56.158065365 2000.0
56.171195648 1425.0
56.184325930 1028.0
56.197456213 858.0
56.210586496 756.0
56.223716778 835.0
56.236847061 910.0
56.249977344 1068.0
56.263107627 1272.0
56.276237909 1496.0
56.289368192 1442.0
56.302498475 1338.0
56.315628757 1015.0
56.328759040 696.0
56.341889323 512.0
56.355019605 356.0
56.368149888 340.0
56.381280171 228.0
56.394410453 213.0
56.407540736 222.0
56.420671019 189.0
56.433801301 176.0
56.446931584 161.0
56.460061867 168.0
56.473192149 149.0
56.486322432 131.0
56.499452715 129.0
56.512582997 114.0
56.525713280 129.0
56.538843563 112.0
56.551973845 121.0
56.565104128 96.0
56.578234411 92.0
56.591364693 101.0
56.604494976 112.0
56.617625259 109.0
56.630755541 102.0
56.643885824 90.0
56.657016107 92.0
56.670146389 109.0
56.683276672 102.0
56.696406955 77.0
56.709537238 98.0
56.722667520 97.0
56.735797803 84.0
56.748928086 91.0
56.762058368 88.0
56.775188651 109.0
56.788318934 87.0
56.801449216 85.0
56.814579499 101.0
56.827709782 98.0
56.840840064 76.0
56.853970347 104.0
56.867100630 68.0
56.880230912 86.0
56.893361195 94.0
56.906491478 73.0
56.919621760 100.0
56.932752043 87.0
56.945882326 92.0
56.959012608 89.0
56.972142891 87.0
56.985273174 79.0
56.998403456 78.0
57.011533739 69.0
57.024664022 71.0
57.037794304 93.0
57.050924587 96.0
57.064054870 85.0
57.077185152 62.0
57.090315435 102.0
57.103445718 79.0
57.116576000 98.0
57.129706283 95.0
57.142836566 73.0
57.155966848 80.0
57.169097131 73.0
57.182227414 73.0
57.195357697 90.0
57.208487979 92.0
57.221618262 85.0
57.234748545 90.0
57.247878827 71.0
57.261009110 76.0
57.274139393 67.0
57.287269675 63.0
57.300399958 97.0
57.313530241 76.0
57.326660523 76.0
57.339790806 73.0
57.352921089 84.0
57.366051371 75.0
57.379181654 97.0
57.392311937 84.0
57.405442219 74.0
57.418572502 78.0
57.431702785 79.0
57.444833067 79.0
57.457963350 84.0
57.471093633 64.0
57.484223915 73.0
57.497354198 69.0
57.510484481 70.0
57.523614763 79.0
57.536745046 70.0
57.549875329 90.0
57.563005611 78.0
57.576135894 99.0
57.589266177 93.0
57.602396459 90.0
57.615526742 87.0
57.628657025 77.0
57.641787308 84.0
57.654917590 85.0
57.668047873 75.0
57.681178156 67.0
57.694308438 59.0
57.707438721 61.0
57.720569004 72.0
57.733699286 80.0
57.746829569 77.0
57.759959852 77.0
57.773090134 72.0
57.786220417 85.0
57.799350700 77.0
57.812480982 90.0
57.825611265 70.0
57.838741548 61.0
57.851871830 72.0
57.865002113 94.0
57.878132396 83.0
57.891262678 75.0
57.904392961 70.0
57.917523244 75.0
57.930653526 72.0
57.943783809 61.0
57.956914092 75.0
57.970044374 63.0
57.983174657 87.0
57.996304940 88.0
58.009435222 76.0
58.022565505 68.0
58.035695788 76.0
58.048826070 62.0
58.061956353 76.0
58.075086636 63.0
58.088216918 68.0
58.101347201 67.0
58.114477484 74.0
58.127607767 78.0
58.140738049 81.0
58.153868332 71.0
58.166998615 79.0
58.180128897 77.0
58.193259180 71.0
58.206389463 86.0
58.219519745 87.0
58.232650028 94.0
58.245780311 63.0
58.258910593 56.0
58.272040876 97.0
58.285171159 76.0
58.298301441 77.0
58.311431724 75.0
58.324562007 63.0
58.337692289 66.0
58.350822572 82.0
58.363952855 70.0
58.377083137 64.0
58.390213420 80.0
58.403343703 73.0
58.416473985 78.0
58.429604268 65.0
58.442734551 79.0
58.455864833 85.0
58.468995116 68.0
58.482125399 64.0
58.495255681 74.0
58.508385964 66.0
58.521516247 88.0
58.534646529 85.0
58.547776812 59.0
58.560907095 60.0
58.574037378 72.0
58.587167660 77.0
58.600297943 75.0
58.613428226 78.0
58.626558508 74.0
58.639688791 76.0
58.652819074 63.0
58.665949356 76.0
58.679079639 85.0
58.692209922 72.0
58.705340204 79.0
58.718470487 75.0
58.731600770 87.0
58.744731052 92.0
58.757861335 69.0
58.770991618 85.0
58.784121900 68.0
58.797252183 84.0
58.810382466 85.0
58.823512748 61.0
58.836643031 67.0
58.849773314 78.0
58.862903596 77.0
58.876033879 73.0
58.889164162 81.0
58.902294444 77.0
58.915424727 66.0
58.928555010 77.0
58.941685292 77.0
58.954815575 81.0
58.967945858 79.0
58.981076140 77.0
58.994206423 82.0
59.007336706 64.0
59.020466989 72.0
59.033597271 60.0
59.046727554 73.0
59.059857837 75.0
59.072988119 70.0
59.086118402 64.0
59.099248685 74.0
59.112378967 58.0
59.125509250 73.0
59.138639533 60.0
59.151769815 74.0
59.164900098 97.0
59.178030381 63.0
59.191160663 61.0
59.204290946 64.0
59.217421229 61.0
59.230551511 66.0
59.243681794 68.0
59.256812077 59.0
59.269942359 69.0
59.283072642 66.0
59.296202925 74.0
59.309333207 72.0
59.322463490 60.0
59.335593773 64.0
59.348724055 66.0
59.361854338 66.0
59.374984621 69.0
59.388114903 73.0
59.401245186 87.0
59.414375469 84.0
59.427505751 64.0
59.440636034 71.0
59.453766317 63.0
59.466896599 77.0
59.480026882 77.0
59.493157165 71.0
59.506287448 82.0
59.519417730 69.0
59.532548013 92.0
59.545678296 79.0
59.558808578 80.0
59.571938861 81.0
59.585069144 66.0
59.598199426 66.0
59.611329709 76.0
59.624459992 66.0
59.637590274 66.0
59.650720557 74.0
59.663850840 58.0
59.676981122 73.0
59.690111405 80.0
59.703241688 77.0
59.716371970 72.0
59.729502253 47.0
59.742632536 72.0
59.755762818 85.0
59.768893101 79.0
59.782023384 73.0
59.795153666 80.0
59.808283949 70.0
59.821414232 63.0
59.834544514 63.0
59.847674797 78.0
59.860805080 73.0
59.873935362 68.0
59.887065645 69.0
59.900195928 58.0
59.913326210 73.0
59.926456493 73.0
59.939586776 83.0
59.952717059 80.0
59.965847341 73.0
59.978977624 59.0
59.992107907 72.0
60.005238189 88.0
60.018368472 76.0
60.031498755 80.0
60.044629037 76.0
60.057759320 68.0
60.070889603 64.0
60.084019885 59.0
60.097150168 69.0
60.110280451 66.0
60.123410733 77.0
60.136541016 87.0
60.149671299 59.0
60.162801581 70.0
60.175931864 71.0
60.189062147 86.0
60.202192429 72.0
60.215322712 73.0
60.228452995 65.0
60.241583277 69.0
60.254713560 70.0
60.267843843 60.0
60.280974125 65.0
60.294104408 73.0
60.307234691 95.0
60.320364973 89.0
60.333495256 75.0
60.346625539 61.0
60.359755821 84.0
60.372886104 63.0
60.386016387 62.0
60.399146669 78.0
60.412276952 64.0
60.425407235 64.0
60.438537518 75.0
60.451667800 68.0
60.464798083 66.0
60.477928366 84.0
60.491058648 53.0
60.504188931 74.0
60.517319214 59.0
60.530449496 76.0
60.543579779 64.0
60.556710062 72.0
60.569840344 56.0
60.582970627 66.0
60.596100910 61.0
60.609231192 65.0
60.622361475 60.0
60.635491758 77.0
60.648622040 64.0
60.661752323 70.0
60.674882606 60.0
60.688012888 67.0
60.701143171 83.0
60.714273454 66.0
60.727403736 57.0
60.740534019 65.0
60.753664302 57.0
60.766794584 69.0
60.779924867 58.0
60.793055150 65.0
60.806185432 79.0
60.819315715 64.0
60.832445998 74.0
60.845576280 73.0
60.858706563 77.0
60.871836846 48.0
60.884967129 80.0
60.898097411 62.0
60.911227694 74.0
60.924357977 88.0
60.937488259 75.0
60.950618542 71.0
60.963748825 75.0
60.976879107 74.0
60.990009390 56.0
61.003139673 65.0
61.016269955 68.0
61.029400238 75.0
61.042530521 69.0
61.055660803 78.0
61.068791086 69.0
61.081921369 73.0
61.095051651 72.0
61.108181934 58.0
61.121312217 55.0
61.134442499 69.0
61.147572782 67.0
61.160703065 73.0
61.173833347 63.0
61.186963630 70.0
61.200093913 68.0
61.213224195 81.0
61.226354478 61.0
61.239484761 97.0
61.252615043 63.0
61.265745326 76.0
61.278875609 80.0
61.292005891 68.0
61.305136174 51.0
61.318266457 67.0
61.331396740 67.0
61.344527022 72.0
61.357657305 72.0
61.370787588 59.0
61.383917870 51.0
61.397048153 66.0
61.410178436 63.0
61.423308718 58.0
61.436439001 57.0
61.449569284 72.0
61.462699566 62.0
61.475829849 70.0
61.488960132 69.0
61.502090414 63.0
61.515220697 64.0
61.528350980 77.0
61.541481262 60.0
61.554611545 64.0
61.567741828 66.0
61.580872110 60.0
61.594002393 73.0
61.607132676 68.0
61.620262958 67.0
61.633393241 68.0
61.646523524 82.0
61.659653806 72.0
61.672784089 66.0
61.685914372 65.0
61.699044654 61.0
61.712174937 56.0
61.725305220 59.0
61.738435502 76.0
61.751565785 60.0
61.764696068 62.0
61.777826350 81.0
61.790956633 76.0
61.804086916 70.0
61.817217199 63.0
61.830347481 62.0
61.843477764 61.0
61.856608047 66.0
61.869738329 62.0
61.882868612 57.0
61.895998895 72.0
61.909129177 60.0
61.922259460 66.0
61.935389743 65.0
61.948520025 53.0
61.961650308 74.0
61.974780591 74.0
61.987910873 55.0
62.001041156 80.0
62.014171439 58.0
62.027301721 78.0
62.040432004 73.0
62.053562287 80.0
62.066692569 53.0
62.079822852 68.0
62.092953135 63.0
62.106083417 76.0
62.119213700 57.0
62.132343983 68.0
62.145474265 77.0
62.158604548 55.0
62.171734831 69.0
62.184865113 63.0
62.197995396 67.0
62.211125679 68.0
62.224255961 57.0
62.237386244 71.0
62.250516527 61.0
62.263646810 61.0
62.276777092 88.0
62.289907375 68.0
62.303037658 74.0
62.316167940 69.0
62.329298223 61.0
62.342428506 62.0
62.355558788 68.0
62.368689071 63.0
62.381819354 71.0
62.394949636 67.0
62.408079919 75.0
62.421210202 55.0
62.434340484 53.0
62.447470767 52.0
62.460601050 70.0
62.473731332 85.0
62.486861615 59.0
62.499991898 71.0
62.513122180 63.0
62.526252463 66.0
62.539382746 62.0
62.552513028 61.0
62.565643311 52.0
62.578773594 63.0
62.591903876 74.0
62.605034159 53.0
62.618164442 68.0
62.631294724 71.0
62.644425007 65.0
62.657555290 60.0
62.670685572 79.0
62.683815855 69.0
62.696946138 69.0
62.710076420 68.0
62.723206703 64.0
62.736336986 55.0
62.749467269 69.0
62.762597551 59.0
62.775727834 55.0
62.788858117 50.0
62.801988399 67.0
62.815118682 74.0
62.828248965 51.0
62.841379247 65.0
62.854509530 82.0
62.867639813 67.0
62.880770095 50.0
62.893900378 62.0
62.907030661 65.0
62.920160943 55.0
62.933291226 64.0
62.946421509 57.0
62.959551791 65.0
62.972682074 70.0
62.985812357 48.0
62.998942639 64.0
63.012072922 47.0
63.025203205 72.0
63.038333487 53.0
63.051463770 63.0
63.064594053 56.0
63.077724335 68.0
63.090854618 66.0
63.103984901 64.0
63.117115183 56.0
63.130245466 58.0
63.143375749 56.0
63.156506031 53.0
63.169636314 74.0
63.182766597 67.0
63.195896880 60.0
63.209027162 68.0
63.222157445 66.0
63.235287728 65.0
63.248418010 56.0
63.261548293 60.0
63.274678576 69.0
63.287808858 59.0
63.300939141 40.0
63.314069424 60.0
63.327199706 79.0
63.340329989 70.0
63.353460272 72.0
63.366590554 61.0
63.379720837 63.0
63.392851120 69.0
63.405981402 79.0
63.419111685 59.0
63.432241968 75.0
63.445372250 75.0
63.458502533 64.0
63.471632816 58.0
63.484763098 58.0
63.497893381 62.0
63.511023664 65.0
63.524153946 61.0
63.537284229 55.0
63.550414512 64.0
63.563544794 73.0
63.576675077 46.0
63.589805360 81.0
63.602935642 63.0
63.616065925 74.0
63.629196208 68.0
63.642326490 60.0
63.655456773 74.0
63.668587056 59.0
63.681717339 60.0
63.694847621 69.0
63.707977904 60.0
63.721108187 49.0
63.734238469 57.0
63.747368752 63.0
63.760499035 56.0
63.773629317 67.0
63.786759600 58.0
63.799889883 67.0
63.813020165 61.0
63.826150448 71.0
63.839280731 55.0
63.852411013 58.0
63.865541296 54.0
63.878671579 83.0
63.891801861 54.0
63.904932144 66.0
63.918062427 57.0
63.931192709 62.0
63.944322992 62.0
63.957453275 63.0
63.970583557 65.0
63.983713840 66.0
63.996844123 49.0
64.009974405 60.0
64.023104688 62.0
64.036234971 60.0
64.049365253 63.0
64.062495536 53.0
64.075625819 44.0
64.088756101 61.0
64.101886384 63.0
64.115016667 68.0
64.128146950 73.0
64.141277232 53.0
64.154407515 51.0
64.167537798 59.0
64.180668080 53.0
64.193798363 65.0
64.206928646 54.0
64.220058928 70.0
64.233189211 68.0
64.246319494 54.0
64.259449776 61.0
64.272580059 67.0
64.285710342 56.0
64.298840624 72.0
64.311970907 69.0
64.325101190 65.0
64.338231472 57.0
64.351361755 57.0
64.364492038 57.0
64.377622320 57.0
64.390752603 53.0
64.403882886 60.0
64.417013168 71.0
64.430143451 59.0
64.443273734 47.0
64.456404016 51.0
64.469534299 65.0
64.482664582 68.0
64.495794864 72.0
64.508925147 51.0
64.522055430 76.0
64.535185712 73.0
64.548315995 61.0
64.561446278 69.0
64.574576561 55.0
64.587706843 44.0
64.600837126 61.0
64.613967409 60.0
64.627097691 67.0
64.640227974 60.0
64.653358257 58.0
64.666488539 62.0
64.679618822 58.0
64.692749105 77.0
64.705879387 64.0
64.719009670 59.0
64.732139953 46.0
64.745270235 41.0
64.758400518 67.0
64.771530801 62.0
64.784661083 59.0
64.797791366 53.0
64.810921649 66.0
64.824051931 66.0
64.837182214 46.0
64.850312497 50.0
64.863442779 66.0
64.876573062 58.0
64.889703345 70.0
64.902833627 65.0
64.915963910 66.0
64.929094193 65.0
64.942224475 60.0
64.955354758 54.0
64.968485041 60.0
64.981615323 50.0
64.994745606 53.0
65.007875889 47.0
65.021006171 44.0
65.034136454 54.0
65.047266737 55.0
65.060397020 58.0
65.073527302 59.0
65.086657585 58.0
65.099787868 63.0
65.112918150 58.0
65.126048433 67.0
65.139178716 61.0
65.152308998 69.0
65.165439281 75.0
65.178569564 62.0
65.191699846 57.0
65.204830129 45.0
65.217960412 54.0
65.231090694 78.0
65.244220977 63.0
65.257351260 58.0
65.270481542 50.0
65.283611825 58.0
65.296742108 57.0
65.309872390 51.0
65.323002673 47.0
65.336132956 59.0
65.349263238 71.0
65.362393521 61.0
65.375523804 79.0
65.388654086 58.0
65.401784369 55.0
65.414914652 60.0
65.428044934 67.0
65.441175217 63.0
65.454305500 72.0
65.467435782 65.0
65.480566065 62.0
65.493696348 61.0
65.506826631 48.0
65.519956913 48.0
65.533087196 60.0
65.546217479 63.0
65.559347761 64.0
65.572478044 58.0
65.585608327 48.0
65.598738609 57.0
65.611868892 48.0
65.624999175 55.0
65.638129457 60.0
65.651259740 51.0
65.664390023 55.0
65.677520305 57.0
65.690650588 53.0
65.703780871 54.0
65.716911153 56.0
65.730041436 55.0
65.743171719 76.0
65.756302001 50.0
65.769432284 66.0
65.782562567 59.0
65.795692849 59.0
65.808823132 60.0
65.821953415 67.0
65.835083697 50.0
65.848213980 44.0
65.861344263 61.0
65.874474545 71.0
65.887604828 62.0
65.900735111 64.0
65.913865393 56.0
65.926995676 56.0
65.940125959 57.0
65.953256241 59.0
65.966386524 54.0
65.979516807 76.0
65.992647090 78.0
66.005777372 79.0
66.018907655 75.0
66.032037938 70.0
66.045168220 52.0
66.058298503 55.0
66.071428786 53.0
66.084559068 59.0
66.097689351 60.0
66.110819634 61.0
66.123949916 55.0
66.137080199 57.0
66.150210482 65.0
66.163340764 51.0
66.176471047 63.0
66.189601330 54.0
66.202731612 63.0
66.215861895 58.0
66.228992178 65.0
66.242122460 48.0
66.255252743 58.0
66.268383026 54.0
66.281513308 58.0
66.294643591 62.0
66.307773874 56.0
66.320904156 59.0
66.334034439 56.0
66.347164722 75.0
66.360295004 37.0
66.373425287 59.0
66.386555570 69.0
66.399685852 60.0
66.412816135 63.0
66.425946418 55.0
66.439076701 61.0
66.452206983 68.0
66.465337266 44.0
66.478467549 71.0
66.491597831 58.0
66.504728114 60.0
66.517858397 66.0
66.530988679 69.0
66.544118962 67.0
66.557249245 45.0
66.570379527 63.0
66.583509810 85.0
66.596640093 60.0
66.609770375 54.0
66.622900658 63.0
66.636030941 61.0
66.649161223 59.0
66.662291506 63.0
66.675421789 46.0
66.688552071 61.0
66.701682354 66.0
66.714812637 41.0
66.727942919 78.0
66.741073202 62.0
66.754203485 73.0
66.767333767 55.0
66.780464050 46.0
66.793594333 66.0
66.806724615 55.0
66.819854898 68.0
66.832985181 62.0
66.846115463 56.0
66.859245746 72.0
66.872376029 70.0
66.885506312 68.0
66.898636594 64.0
66.911766877 52.0
66.924897160 45.0
66.938027442 64.0
66.951157725 56.0
66.964288008 58.0
66.977418290 63.0
66.990548573 57.0
67.003678856 48.0
67.016809138 58.0
67.029939421 51.0
67.043069704 66.0
67.056199986 58.0
67.069330269 56.0
67.082460552 76.0
67.095590834 56.0
67.108721117 71.0
67.121851400 72.0
67.134981682 59.0
67.148111965 57.0
67.161242248 51.0
67.174372530 51.0
67.187502813 61.0
67.200633096 74.0
67.213763378 55.0
67.226893661 61.0
67.240023944 64.0
67.253154226 56.0
67.266284509 54.0
67.279414792 67.0
67.292545074 63.0
67.305675357 61.0
67.318805640 55.0
67.331935922 65.0
67.345066205 63.0
67.358196488 61.0
67.371326771 62.0
67.384457053 61.0
67.397587336 55.0
67.410717619 54.0
67.423847901 60.0
67.436978184 58.0
67.450108467 58.0
67.463238749 61.0
67.476369032 55.0
67.489499315 60.0
67.502629597 53.0
67.515759880 68.0
67.528890163 75.0
67.542020445 66.0
67.555150728 67.0
67.568281011 67.0
67.581411293 65.0
67.594541576 78.0
67.607671859 51.0
67.620802141 46.0
67.633932424 65.0
67.647062707 73.0
67.660192989 57.0
67.673323272 63.0
67.686453555 68.0
67.699583837 63.0
67.712714120 63.0
67.725844403 69.0
67.738974685 58.0
67.752104968 61.0
67.765235251 59.0
67.778365533 56.0
67.791495816 57.0
67.804626099 56.0
67.817756382 83.0
67.830886664 61.0
67.844016947 58.0
67.857147230 64.0
67.870277512 65.0
67.883407795 48.0
67.896538078 53.0
67.909668360 62.0
67.922798643 52.0
67.935928926 69.0
67.949059208 57.0
67.962189491 65.0
67.975319774 52.0
67.988450056 54.0
68.001580339 50.0
68.014710622 76.0
68.027840904 69.0
68.040971187 55.0
68.054101470 55.0
68.067231752 58.0
68.080362035 56.0
68.093492318 67.0
68.106622600 65.0
68.119752883 54.0
68.132883166 54.0
68.146013448 62.0
68.159143731 52.0
68.172274014 62.0
68.185404296 41.0
68.198534579 64.0
68.211664862 49.0
68.224795144 55.0
68.237925427 57.0
68.251055710 61.0
68.264185992 67.0
68.277316275 59.0
68.290446558 61.0
68.303576841 69.0
68.316707123 62.0
68.329837406 57.0
68.342967689 63.0
68.356097971 61.0
68.369228254 63.0
68.382358537 46.0
68.395488819 66.0
68.408619102 56.0
68.421749385 51.0
68.434879667 74.0
68.448009950 58.0
68.461140233 66.0
68.474270515 82.0
68.487400798 73.0
68.500531081 70.0
68.513661363 73.0
68.526791646 61.0
68.539921929 59.0
68.553052211 82.0
68.566182494 80.0
68.579312777 66.0
68.592443059 55.0
68.605573342 67.0
68.618703625 68.0
68.631833907 55.0
68.644964190 61.0
68.658094473 78.0
68.671224755 74.0
68.684355038 81.0
68.697485321 71.0
68.710615603 56.0
68.723745886 67.0
68.736876169 64.0
68.750006452 69.0
68.763136734 72.0
68.776267017 68.0
68.789397300 80.0
68.802527582 70.0
68.815657865 84.0
68.828788148 64.0
68.841918430 70.0
68.855048713 71.0
68.868178996 73.0
68.881309278 97.0
68.894439561 101.0
68.907569844 107.0
68.920700126 89.0
68.933830409 87.0
68.946960692 80.0
68.960090974 97.0
68.973221257 96.0
68.986351540 116.0
68.999481822 128.0
69.012612105 152.0
69.025742388 156.0
69.038872670 178.0
69.052002953 220.0
69.065133236 267.0
69.078263518 329.0
69.091393801 390.0
69.104524084 496.0
69.117654366 565.0
69.130784649 652.0
69.143914932 609.0
69.157045214 508.0
69.170175497 408.0
69.183305780 310.0
69.196436063 228.0
69.209566345 199.0
69.222696628 200.0
69.235826911 194.0
69.248957193 199.0
69.262087476 199.0
69.275217759 214.0
69.288348041 273.0
69.301478324 284.0
69.314608607 312.0
69.327738889 336.0
69.340869172 343.0
69.353999455 287.0
69.367129737 269.0
69.380260020 192.0
69.393390303 143.0
69.406520585 121.0
69.419650868 102.0
69.432781151 102.0
69.445911433 95.0
69.459041716 99.0
69.472171999 87.0
69.485302281 76.0
69.498432564 103.0
69.511562847 83.0
69.524693129 72.0
69.537823412 78.0
69.550953695 85.0
69.564083977 80.0
69.577214260 55.0
69.590344543 74.0
69.603474825 78.0
69.616605108 71.0
69.629735391 70.0
69.642865673 62.0
69.655995956 66.0
69.669126239 75.0
69.682256522 69.0
69.695386804 77.0
69.708517087 59.0
69.721647370 72.0
69.734777652 50.0
69.747907935 57.0
69.761038218 67.0
69.774168500 78.0
69.787298783 61.0
69.800429066 59.0
69.813559348 73.0
69.826689631 65.0
69.839819914 74.0
69.852950196 69.0
69.866080479 71.0
69.879210762 56.0
69.892341044 60.0
69.905471327 57.0
69.918601610 68.0
69.931731892 67.0
69.944862175 54.0
69.957992458 42.0
69.971122740 60.0
69.984253023 51.0
69.997383306 49.0
70.010513588 60.0
70.023643871 48.0
70.036774154 63.0
70.049904436 55.0
70.063034719 53.0
70.076165002 57.0
70.089295284 57.0
70.102425567 45.0
70.115555850 49.0
70.128686133 76.0
70.141816415 55.0
70.154946698 51.0
70.168076981 53.0
70.181207263 71.0
70.194337546 57.0
70.207467829 56.0
70.220598111 65.0
70.233728394 68.0
70.246858677 62.0
70.259988959 64.0
70.273119242 64.0
70.286249525 62.0
70.299379807 64.0
70.312510090 66.0
70.325640373 54.0
70.338770655 66.0
70.351900938 73.0
70.365031221 70.0
70.378161503 51.0
70.391291786 62.0
70.404422069 74.0
70.417552351 62.0
70.430682634 62.0
70.443812917 58.0
70.456943199 57.0
70.470073482 69.0
70.483203765 60.0
70.496334047 54.0
70.509464330 64.0
70.522594613 64.0
70.535724895 55.0
70.548855178 61.0
70.561985461 59.0
70.575115743 52.0
70.588246026 51.0
70.601376309 54.0
70.614506592 63.0
70.627636874 61.0
70.640767157 59.0
70.653897440 70.0
70.667027722 65.0
70.680158005 63.0
70.693288288 63.0
70.706418570 69.0
70.719548853 61.0
70.732679136 67.0
70.745809418 42.0
70.758939701 50.0
70.772069984 78.0
70.785200266 47.0
70.798330549 69.0
70.811460832 57.0
70.824591114 52.0
70.837721397 47.0
70.850851680 58.0
70.863981962 56.0
70.877112245 53.0
70.890242528 59.0
70.903372810 51.0
70.916503093 67.0
70.929633376 40.0
70.942763658 59.0
70.955893941 75.0
70.969024224 65.0
70.982154506 73.0
70.995284789 62.0
71.008415072 46.0
71.021545354 63.0
71.034675637 58.0
71.047805920 58.0
71.060936203 66.0
71.074066485 59.0
71.087196768 54.0
71.100327051 66.0
71.113457333 71.0
71.126587616 68.0
71.139717899 64.0
71.152848181 58.0
71.165978464 64.0
71.179108747 46.0
71.192239029 58.0
71.205369312 57.0
71.218499595 60.0
71.231629877 52.0
71.244760160 58.0
71.257890443 61.0
71.271020725 68.0
71.284151008 50.0
71.297281291 54.0
71.310411573 59.0
71.323541856 55.0
71.336672139 50.0
71.349802421 61.0
71.362932704 75.0
71.376062987 67.0
71.389193269 57.0
71.402323552 53.0
71.415453835 43.0
71.428584117 61.0
71.441714400 49.0
71.454844683 67.0
71.467974965 61.0
71.481105248 46.0
71.494235531 69.0
71.507365814 56.0
71.520496096 60.0
71.533626379 64.0
71.546756662 56.0
71.559886944 45.0
71.573017227 48.0
71.586147510 50.0
71.599277792 58.0
71.612408075 58.0
71.625538358 53.0
71.638668640 59.0
71.651798923 45.0
71.664929206 55.0
71.678059488 69.0
71.691189771 70.0
71.704320054 54.0
71.717450336 59.0
71.730580619 46.0
71.743710902 72.0
71.756841184 59.0
71.769971467 54.0
71.783101750 59.0
71.796232032 52.0
71.809362315 57.0
71.822492598 56.0
71.835622880 58.0
71.848753163 66.0
71.861883446 75.0
71.875013728 55.0
71.888144011 49.0
71.901274294 55.0
71.914404576 68.0
71.927534859 56.0
71.940665142 64.0
71.953795424 49.0
71.966925707 57.0
71.980055990 55.0
71.993186273 56.0
72.006316555 51.0
72.019446838 53.0
72.032577121 43.0
72.045707403 45.0
72.058837686 52.0
72.071967969 63.0
72.085098251 54.0
72.098228534 68.0
72.111358817 55.0
72.124489099 46.0
72.137619382 45.0
72.150749665 69.0
72.163879947 63.0
72.177010230 61.0
72.190140513 60.0
72.203270795 54.0
72.216401078 62.0
72.229531361 54.0
72.242661643 43.0
72.255791926 49.0
72.268922209 64.0
72.282052491 66.0
72.295182774 50.0
72.308313057 54.0
72.321443339 62.0
72.334573622 57.0
72.347703905 55.0
72.360834187 44.0
72.373964470 55.0
72.387094753 58.0
72.400225035 58.0
72.413355318 51.0
72.426485601 50.0
72.439615884 48.0
72.452746166 48.0
72.465876449 64.0
72.479006732 51.0
72.492137014 46.0
72.505267297 63.0
72.518397580 63.0
72.531527862 51.0
72.544658145 50.0
72.557788428 57.0
72.570918710 48.0
72.584048993 49.0
72.597179276 61.0
72.610309558 50.0
72.623439841 50.0
72.636570124 65.0
72.649700406 68.0
72.662830689 52.0
72.675960972 55.0
72.689091254 54.0
72.702221537 62.0
72.715351820 44.0
72.728482102 57.0
72.741612385 48.0
72.754742668 50.0
72.767872950 58.0
72.781003233 53.0
72.794133516 59.0
72.807263798 54.0
72.820394081 50.0
72.833524364 62.0
72.846654646 60.0
72.859784929 50.0
72.872915212 57.0
72.886045494 49.0
72.899175777 59.0
72.912306060 63.0
72.925436343 69.0
72.938566625 45.0
72.951696908 50.0
72.964827191 58.0
72.977957473 53.0
72.991087756 56.0
73.004218039 48.0
73.017348321 50.0
73.030478604 54.0
73.043608887 47.0
73.056739169 50.0
73.069869452 66.0
73.082999735 49.0
73.096130017 53.0
73.109260300 64.0
73.122390583 52.0
73.135520865 53.0
73.148651148 62.0
73.161781431 48.0
73.174911713 53.0
73.188041996 66.0
73.201172279 55.0
73.214302561 47.0
73.227432844 56.0
73.240563127 57.0
73.253693409 50.0
73.266823692 70.0
73.279953975 57.0
73.293084257 55.0
73.306214540 51.0
73.319344823 60.0
73.332475105 62.0
73.345605388 63.0
73.358735671 66.0
73.371865954 41.0
73.384996236 41.0
73.398126519 52.0
73.411256802 57.0
73.424387084 66.0
73.437517367 54.0
73.450647650 51.0
73.463777932 68.0
73.476908215 56.0
73.490038498 65.0
73.503168780 59.0
73.516299063 43.0
73.529429346 61.0
73.542559628 57.0
73.555689911 46.0
73.568820194 54.0
73.581950476 61.0
73.595080759 63.0
73.608211042 65.0
73.621341324 51.0
73.634471607 43.0
73.647601890 50.0
73.660732172 43.0
73.673862455 52.0
73.686992738 55.0
73.700123020 54.0
73.713253303 55.0
73.726383586 49.0
73.739513868 50.0
73.752644151 73.0
73.765774434 59.0
73.778904716 55.0
73.792034999 75.0
73.805165282 66.0
73.818295565 67.0
73.831425847 53.0
73.844556130 59.0
73.857686413 62.0
73.870816695 49.0
73.883946978 47.0
73.897077261 45.0
73.910207543 55.0
73.923337826 48.0
73.936468109 69.0
73.949598391 60.0
73.962728674 61.0
73.975858957 54.0
73.988989239 65.0
74.002119522 59.0
74.015249805 63.0
74.028380087 64.0
74.041510370 55.0
74.054640653 68.0
74.067770935 73.0
74.080901218 48.0
74.094031501 38.0
74.107161783 51.0
74.120292066 68.0
74.133422349 76.0
74.146552631 56.0
74.159682914 48.0
74.172813197 41.0
74.185943479 62.0
74.199073762 45.0
74.212204045 81.0
74.225334327 64.0
74.238464610 54.0
74.251594893 58.0
74.264725175 62.0
74.277855458 60.0
74.290985741 56.0
74.304116024 52.0
74.317246306 42.0
74.330376589 60.0
74.343506872 56.0
74.356637154 68.0
74.369767437 66.0
74.382897720 49.0
74.396028002 57.0
74.409158285 48.0
74.422288568 68.0
74.435418850 38.0
74.448549133 53.0
74.461679416 52.0
74.474809698 61.0
74.487939981 69.0
74.501070264 45.0
74.514200546 50.0
74.527330829 68.0
74.540461112 62.0
74.553591394 69.0
74.566721677 60.0
74.579851960 49.0
74.592982242 72.0
74.606112525 65.0
74.619242808 49.0
74.632373090 48.0
74.645503373 51.0
74.658633656 58.0
74.671763938 51.0
74.684894221 59.0
74.698024504 50.0
74.711154786 65.0
74.724285069 65.0
74.737415352 49.0
74.750545635 51.0
74.763675917 48.0
74.776806200 53.0
74.789936483 49.0
74.803066765 52.0
74.816197048 50.0
74.829327331 58.0
74.842457613 38.0
74.855587896 64.0
74.868718179 55.0
74.881848461 73.0
74.894978744 72.0
74.908109027 56.0
74.921239309 53.0
74.934369592 60.0
74.947499875 64.0
74.960630157 51.0
74.973760440 47.0
